density,heat_capacity,thermal_conductivity
7932.0,505.4272,14.745
7887.0,518.816,16.315
7841.0,531.9956,17.89
7794.5,545.1752,19.465
7747.0,558.564,21.035
7698.5,571.9528,22.605
7649.0,585.1324,24.175
7599.0,598.312,25.745
7548.5,611.7008,27.315
7497.0,625.0896,28.885
7445.0,638.2692,30.46
7392.0,651.4488,32.035
7338.0,664.8376,33.605
7283.5,678.2264,35.175
