density,heat_capacity,viscosity,thermal_conductivity
10577.3375,146.6597440329218,0.0022172015633682355,16.625
10513.3625,145.72449453032104,0.0019877928420200973,17.174999999999997
10449.3875,144.78304308012486,0.0018074137908630303,17.725
10385.4125,143.85498154269973,0.0016624621323030578,18.275
10321.4375,142.9544693877551,0.0015438146911014726,18.825
10257.4625,142.0919458728999,0.0014451567824505652,19.375
10193.4875,141.27524418145956,0.0013619975329459168,19.924999999999997
10129.5125,140.51033486020225,0.0012910669496039276,20.474999999999998
10065.5375,139.80183309897242,0.0012299342892951547,21.025
10001.5625,139.15335185185185,0.0011767593680168567,21.575
9937.5875,138.56775210502488,0.0011301262747093605,22.125
9873.6125,138.0473231570179,0.0010889296063123061,22.674999999999997
9809.6375,137.59391441753172,0.0010522950202684787,,
9745.6625,137.2090330722677,0.0010195227165141596,,
9681.6875,136.89391735537188,0.0009900465521585542,,
9617.7125,136.6495921514312,,,,
9553.7375,136.47691163458774,,,,
9489.7625,136.3765922870196,,,,
9425.7875,136.3492386999244,,,,
9361.8125,136.3953639053254,,,,
9297.8375,136.51540552461572,,,,
9233.8625,136.70973868935096,,,,
9169.8875,136.97868645110097,,,,
9105.9125,137.3225282229311,,,,
9041.9375,137.74150666666665,,,,
8977.9625,138.2358333445775,,,,